0.00111441647597254
0.000931350114416476
0.000748283752860412
0.000906178489702517
0.00106407322654462
0.000961098398169336
0.000855835240274600
0.00154691075514874
0.00223798627002288
0.00263157894736842
0.00304347826086957
0.00320366132723112
0.00336384439359268
0.00370709382151030
0.00407322654462243
0.00466819221967963
0.00524027459954234
0.00709382151029748
0.00894736842105263
0.0152631578947368
0.0216018306636156
0.0405034324942792
0.0594965675057208
0.131578947368421
0.203432494279176
0.231121281464531
0.256292906178490
0.178260869565217
0.100000000000000
0.0661327231121281
0.0324942791762014
0.0270022883295195
0.0216704805491991
0.0233409610983982
0.0247139588100687
0.0276887871853547
0.0306636155606407
0.0347826086956522
0.0386727688787185
0.0434782608695652
0.0480549199084668
0.0540045766590389
0.0599542334096110
0.0668192219679634
0.0739130434782609
0.0821510297482838
0.0901601830663616
0.100686498855835
0.110983981693364
0.127459954233410
0.143935926773455
0.182151029748284
0.220366132723112
0.375286041189931
0.530892448512586
0.766590389016018
1
0.864988558352403
0.732265446224256
0.508009153318078
0.283752860411899
0.258581235697941
0.233409610983982
0.235697940503433
0.237986270022883
0.242562929061785
0.249427917620137
0.251716247139588
0.256292906178490
0.260869565217391
0.265446224256293
0.270022883295195
0.274599542334096
0.279176201372998
0.283752860411899
0.286041189931350
0.290617848970252
0.292906178489703
0.297482837528604
0.299771167048055
0.304347826086957
0.306636155606407
0.308924485125858
0.311212814645309
0.313501144164760
0.315789473684211
0.318077803203661
0.318077803203661
0.320366132723112
0.320366132723112
0.322654462242563
0.322654462242563
0.322654462242563
0.324942791762014
0.324942791762014
0.324942791762014
0.324942791762014
0.324942791762014
0.324942791762014
0.327231121281465
0.327231121281465
0.327231121281465
0.329519450800915
0.329519450800915
0.329519450800915
0.329519450800915
0.329519450800915
0.329519450800915
0.329519450800915
0.331807780320366
0.331807780320366
0.334096109839817
0.334096109839817
0.331807780320366
0.329519450800915
0.327231121281465
0.324942791762014
0.322654462242563
0.320366132723112
0.318077803203661
0.315789473684211
0.313501144164760
0.311212814645309
0.306636155606407
0.304347826086957
0.302059496567506
0.297482837528604
0.295194508009153
0.290617848970252
0.288329519450801
0.283752860411899
0.281464530892449
0.276887871853547
0.274599542334096
0.272311212814645
0.267734553775744
0.265446224256293
0.263157894736842
0.258581235697941
0.256292906178490
0.254004576659039
0.251716247139588
0.249427917620137
0.247139588100687
0.244851258581236
0.242562929061785
0.240274599542334
0.237986270022883
0.235697940503433
0.235697940503433
0.233409610983982
0.231121281464531
0.231121281464531
0.228604118993135
0.227002288329519
0.226315789473684
0.225400457665904
0.224713958810069
0.224027459954233
0.224256292906179
0.224713958810069
0.231121281464531
0.240274599542334
0.354691075514874
0.471395881006865
0.697940503432494
0.926773455377574
0.782608695652174
0.640732265446224
0.439359267734554
0.237986270022883
0.231121281464531
0.222654462242563
0.222654462242563
0.222425629290618
0.222654462242563
0.222883295194508
0.223569794050343
0.224256292906179
0.225629290617849
0.227002288329519
0.228375286041190
0.228832951945080
0.231121281464531
0.233409610983982
0.233409610983982
0.235697940503433
0.237986270022883
0.240274599542334
0.240274599542334
0.242562929061785
0.244851258581236
0.244851258581236
0.249427917620137
0.251716247139588
0.299771167048055
0.347826086956522
0.384439359267735
0.423340961098398
0.389016018306636
0.354691075514874
0.313501144164760
0.272311212814645
0.265446224256293
0.258581235697941
0.260869565217391
0.260869565217391
0.260869565217391
0.260869565217391
0.263157894736842
0.263157894736842
0.263157894736842
0.265446224256293
0.265446224256293
0.265446224256293
0.267734553775744
0.267734553775744
0.267734553775744
0.270022883295195
0.270022883295195
0.270022883295195
0.272311212814645
0.272311212814645
0.272311212814645
0.274599542334096
0.274599542334096
0.276887871853547
0.276887871853547
0.279176201372998
0.279176201372998
0.281464530892449
0.281464530892449
0.283752860411899
0.283752860411899
0.286041189931350
0.286041189931350
0.286041189931350
0.286041189931350
0.288329519450801
0.288329519450801
0.288329519450801
0.288329519450801
0.288329519450801
0.288329519450801
0.288329519450801
0.288329519450801
0.288329519450801
0.286041189931350
0.286041189931350
0.286041189931350
0.283752860411899
0.283752860411899
0.283752860411899
0.281464530892449
0.281464530892449
0.281464530892449
0.279176201372998
0.279176201372998
0.276887871853547
0.274599542334096
0.274599542334096
0.272311212814645
0.272311212814645
0.270022883295195
0.267734553775744
0.267734553775744
0.265446224256293
0.263157894736842
0.263157894736842
0.260869565217391
0.258581235697941
0.256292906178490
0.254004576659039
0.251716247139588
0.249427917620137
0.247139588100687
0.244851258581236
0.240274599542334
0.237986270022883
0.235697940503433
0.231121281464531
0.227917620137300
0.224485125858124
0.221281464530892
0.217848970251716
0.214874141876430
0.211670480549199
0.208695652173913
0.205720823798627
0.203203661327231
0.200457665903890
0.198169336384439
0.195652173913044
0.193363844393593
0.191075514874142
0.189016018306636
0.186727688787185
0.185125858123570
0.183524027459954
0.181922196796339
0.180091533180778
0.178947368421053
0.177803203661327
0.176659038901602
0.175514874141876
0.174141876430206
0.172997711670481
0.172082379862700
0.170938215102975
0.170709382151030
0.170251716247140
0.168192219679634
0.166361556064073
0.163844393592677
0.161327231121281
0.159725400457666
0.158123569794050
0.155835240274600
0.153775743707094
0.151258581235698
0.148741418764302
0.146910755148741
0.144851258581236
0.142791762013730
0.140732265446224
0.139130434782609
0.137528604118993
0.135469107551487
0.133409610983982
0.130892448512586
0.128146453089245
0.125629290617849
0.123112128146453
0.121052631578947
0.118993135011442
0.116704805491991
0.114416475972540
0.112585812356979
0.110526315789474
0.108466819221968
0.106636155606407
0.104805491990847
0.102974828375286
0.101372997711670
0.0997711670480549
0.0979405034324943
0.0963386727688787
0.0945080091533181
0.0929061784897025
0.0908466819221968
0.0890160183066362
0.0874141876430206
0.0860411899313501
0.0842105263157895
0.0823798627002289
0.0812356979405034
0.0803203661327231
0.0794050343249428
0.0787185354691076
0.0766590389016018
0.0745995423340961
0.0727688787185355
0.0707093821510298
0.0691075514874142
0.0675057208237986
0.0663615560640732
0.0652173913043478
0.0640732265446224
0.0631578947368421
0.0633867276887872
0.0636155606407323
0.0622425629290618
0.0606407322654462
0.0581235697940503
0.0553775743707094
0.0540045766590389
0.0526315789473684
0.0514874141876430
0.0503432494279176
0.0494279176201373
0.0487414187643021
0.0503432494279176
0.0517162471395881
0.0514874141876430
0.0512585812356979
0.0475972540045767
0.0437070938215103
0.0421052631578947
0.0405034324942792
0.0402745995423341
0.0398169336384439
0.0402745995423341
0.0407322654462243
0.0393592677345538
0.0377574370709382
0.0359267734553776
0.0343249427917620
0.0334096109839817
0.0327231121281465
0.0320366132723112
0.0311212814645309